# Wavenumber,Transmittence
843.00,0.665360
853.00,0.638460
828.00,0.769880
833.00,0.757620
908.00,0.000000
918.00,0.099720
923.00,0.205800
893.00,0.028740
838.00,0.702940
898.00,0.006620
848.00,0.647340
863.00,0.605760
928.00,0.292200
868.00,0.530020
823.00,0.764060
903.00,0.000000
888.00,0.096820
873.00,0.375400
883.00,0.189000
913.00,0.008100
858.00,0.629780
878.00,0.233460
