# Wavenumber,Transmittence
1108.00,0.561260
1093.00,0.716120
1078.00,0.648980
1143.00,0.690740
1133.00,0.672480
1118.00,0.662200
1123.00,0.705980
1098.00,0.662220
1178.00,0.773920
1128.00,0.698740
1173.00,0.793660
1113.00,0.605700
1153.00,0.750840
1163.00,0.782640
1168.00,0.795920
1083.00,0.672640
1188.00,0.729740
1158.00,0.764820
1148.00,0.728900
1088.00,0.716240
1193.00,0.729540
1103.00,0.594500
1183.00,0.748240
1138.00,0.672820
