# Wavenumber,Transmittence
903.00,0.000000
863.00,0.605760
893.00,0.028740
878.00,0.233460
913.00,0.008100
883.00,0.189000
873.00,0.375400
933.00,0.378700
888.00,0.096820
898.00,0.006620
938.00,0.454160
948.00,0.519780
923.00,0.205800
928.00,0.292200
908.00,0.000000
853.00,0.638460
943.00,0.503620
953.00,0.488880
858.00,0.629780
868.00,0.530020
918.00,0.099720
958.00,0.401440
