# Wavenumber,Transmittence
843.00,0.665360
823.00,0.764060
853.00,0.638460
808.00,0.737280
813.00,0.723640
838.00,0.702940
738.00,0.642620
848.00,0.647340
743.00,0.669540
818.00,0.735980
803.00,0.781540
788.00,0.766380
783.00,0.774300
778.00,0.796080
733.00,0.492340
758.00,0.619080
833.00,0.757620
798.00,0.795320
763.00,0.679900
768.00,0.742980
828.00,0.769880
773.00,0.789160
748.00,0.661460
753.00,0.607920
793.00,0.785800
