# Wavenumber	Transmittence
1323.00	0.586300
1328.00	0.562720
1303.00	0.548680
1293.00	0.487600
1363.00	0.366740
1308.00	0.586120
1408.00	0.165780
1398.00	0.439500
1413.00	0.200640
1383.00	0.464820
1393.00	0.505780
1388.00	0.508960
1403.00	0.295640
1368.00	0.236680
1418.00	0.199220
1318.00	0.579540
1373.00	0.080600
1333.00	0.488520
1338.00	0.440960
1348.00	0.451640
1288.00	0.507500
1358.00	0.439920
1378.00	0.265000
1353.00	0.469620
1313.00	0.579980
1298.00	0.497280
1343.00	0.440060
