# Wavenumber,Transmittence
1548.00,0.762360
1558.00,0.790680
1488.00,0.588360
1583.00,0.833940
1553.00,0.772280
1568.00,0.829900
1508.00,0.708780
1573.00,0.835000
1533.00,0.739980
1503.00,0.690140
1513.00,0.723260
1498.00,0.664140
1523.00,0.746160
1578.00,0.835840
1483.00,0.527500
1473.00,0.267720
1563.00,0.814220
1543.00,0.751360
1493.00,0.626360
1478.00,0.435360
1518.00,0.732660
1538.00,0.743080
1528.00,0.743420
