# Wavenumber Transmittence
3203.00 0.861000
3263.00 0.902140
3293.00 0.924660
3193.00 0.842300
3268.00 0.910820
3228.00 0.895180
3288.00 0.924060
3248.00 0.901860
3238.00 0.901400
3298.00 0.924920
3188.00 0.829000
3283.00 0.923060
3313.00 0.923400
3258.00 0.899220
3218.00 0.883900
3183.00 0.817680
3253.00 0.900520
3303.00 0.924900
3213.00 0.877380
3278.00 0.921440
3233.00 0.899580
3308.00 0.924260
3198.00 0.851660
3208.00 0.869780
3273.00 0.918280
3223.00 0.889800
3243.00 0.901860
