# Wavenumber Transmittence
3903.00 0.885980
3898.00 0.886620
3833.00 0.899680
3948.00 0.861280
3923.00 0.883480
3848.00 0.894440
3933.00 0.879700
3958.00 0.855320
3863.00 0.891220
3873.00 0.889920
3938.00 0.874000
3908.00 0.885360
3918.00 0.884200
3858.00 0.892060
3928.00 0.881980
3943.00 0.867500
3868.00 0.890560
3883.00 0.888620
3888.00 0.887960
3843.00 0.896780
3878.00 0.889260
3853.00 0.892940
3893.00 0.887280
3838.00 0.898300
3953.00 0.857940
3913.00 0.884780
