# Wavenumber,Transmittence
1353.00,0.469620
1393.00,0.505780
1358.00,0.439920
1383.00,0.464820
1413.00,0.200640
1443.00,0.012640
1408.00,0.165780
1448.00,0.005400
1398.00,0.439500
1428.00,0.047040
1403.00,0.295640
1388.00,0.508960
1438.00,0.016860
1453.00,0.000200
1368.00,0.236680
1363.00,0.366740
1423.00,0.112960
1378.00,0.265000
1373.00,0.080600
1433.00,0.019100
1418.00,0.199220
