# Wavenumber,Transmittence
1183.00,0.748240
1108.00,0.561260
1123.00,0.705980
1158.00,0.764820
1178.00,0.773920
1153.00,0.750840
1143.00,0.690740
1118.00,0.662200
1173.00,0.793660
1138.00,0.672820
1148.00,0.728900
1113.00,0.605700
1203.00,0.731200
1188.00,0.729740
1193.00,0.729540
1128.00,0.698740
1198.00,0.737460
1168.00,0.795920
1133.00,0.672480
1163.00,0.782640
