# Wavenumber,Transmittence
2118.00,0.927280
2123.00,0.926480
2173.00,0.910520
2208.00,0.911700
2153.00,0.915100
2213.00,0.911820
2218.00,0.912360
2158.00,0.913580
2178.00,0.909900
2143.00,0.919200
2203.00,0.911800
2193.00,0.911920
2183.00,0.909940
2163.00,0.912500
2223.00,0.913020
2168.00,0.911500
2148.00,0.916820
2198.00,0.912300
2188.00,0.911020
2128.00,0.925460
2138.00,0.921660
2133.00,0.923900
