# Wavenumber,Transmittence
783.00,0.774300
853.00,0.638460
823.00,0.764060
803.00,0.781540
768.00,0.742980
763.00,0.679900
838.00,0.702940
778.00,0.796080
863.00,0.605760
773.00,0.789160
858.00,0.629780
848.00,0.647340
828.00,0.769880
758.00,0.619080
808.00,0.737280
843.00,0.665360
798.00,0.795320
788.00,0.766380
833.00,0.757620
793.00,0.785800
813.00,0.723640
818.00,0.735980
