# Wavenumber	Transmittence
2003.00	0.918560
2043.00	0.909340
2063.00	0.921600
2048.00	0.912360
2053.00	0.915580
2028.00	0.905180
1968.00	0.860600
2023.00	0.906180
2038.00	0.906980
1998.00	0.915720
1978.00	0.866360
1988.00	0.891940
2008.00	0.917460
1953.00	0.919660
2013.00	0.914840
1993.00	0.909320
2078.00	0.922700
2018.00	0.911180
2068.00	0.922760
2073.00	0.922780
1958.00	0.901060
2083.00	0.922820
1973.00	0.857800
1963.00	0.878940
2033.00	0.905620
2058.00	0.919000
1983.00	0.875900
