# Wavenumber,Transmittence
1473.00,0.267720
1458.00,0.000080
1398.00,0.439500
1388.00,0.508960
1408.00,0.165780
1378.00,0.265000
1418.00,0.199220
1403.00,0.295640
1393.00,0.505780
1443.00,0.012640
1468.00,0.087700
1438.00,0.016860
1448.00,0.005400
1453.00,0.000200
1428.00,0.047040
1463.00,0.000100
1433.00,0.019100
1383.00,0.464820
1423.00,0.112960
1413.00,0.200640
