# Wavenumber,Transmittence
1878.00,0.908780
1978.00,0.866360
1973.00,0.857800
1918.00,0.925340
1903.00,0.923560
1888.00,0.905620
1958.00,0.901060
1893.00,0.909760
1913.00,0.924740
1983.00,0.875900
1988.00,0.891940
1963.00,0.878940
1933.00,0.936200
1943.00,0.933580
1908.00,0.925380
1968.00,0.860600
1953.00,0.919660
1923.00,0.927740
1883.00,0.905060
1928.00,0.931500
1898.00,0.916580
1938.00,0.935920
1948.00,0.928500
