# Wavenumber Transmittence
1398.00 0.439500
1413.00 0.200640
1348.00 0.451640
1333.00 0.488520
1308.00 0.586120
1373.00 0.080600
1378.00 0.265000
1323.00 0.586300
1383.00 0.464820
1343.00 0.440060
1393.00 0.505780
1363.00 0.366740
1368.00 0.236680
1403.00 0.295640
1388.00 0.508960
1328.00 0.562720
1408.00 0.165780
1298.00 0.497280
1313.00 0.579980
1318.00 0.579540
1353.00 0.469620
1338.00 0.440960
1358.00 0.439920
1303.00 0.548680
