# Wavenumber,Transmittence
1648.00,0.442200
1638.00,0.038180
1613.00,0.634280
1628.00,0.141000
1553.00,0.772280
1663.00,0.778260
1588.00,0.828740
1658.00,0.750560
1623.00,0.372080
1563.00,0.814220
1643.00,0.252280
1548.00,0.762360
1578.00,0.835840
1593.00,0.815120
1543.00,0.751360
1558.00,0.790680
1668.00,0.808000
1598.00,0.793320
1608.00,0.660640
1573.00,0.835000
1603.00,0.714200
1583.00,0.833940
1568.00,0.829900
1633.00,0.014460
1653.00,0.709540
1618.00,0.589860
