# Wavenumber	Transmittence
1948.00	0.928500
1983.00	0.875900
1933.00	0.936200
1918.00	0.925340
1893.00	0.909760
1903.00	0.923560
1878.00	0.908780
1913.00	0.924740
1868.00	0.914840
1978.00	0.866360
1908.00	0.925380
1923.00	0.927740
1963.00	0.878940
1953.00	0.919660
1883.00	0.905060
1973.00	0.857800
1873.00	0.914480
1888.00	0.905620
1958.00	0.901060
1968.00	0.860600
1928.00	0.931500
1988.00	0.891940
1898.00	0.916580
1938.00	0.935920
1943.00	0.933580
