# Wavenumber,Transmittence
743.00,0.669540
798.00,0.795320
728.00,0.314140
723.00,0.167980
713.00,0.475280
738.00,0.642620
763.00,0.679900
773.00,0.789160
783.00,0.774300
833.00,0.757620
698.00,0.837460
818.00,0.735980
823.00,0.764060
808.00,0.737280
768.00,0.742980
813.00,0.723640
693.00,0.856040
828.00,0.769880
753.00,0.607920
793.00,0.785800
778.00,0.796080
703.00,0.795620
788.00,0.766380
718.00,0.282020
758.00,0.619080
733.00,0.492340
708.00,0.682300
748.00,0.661460
803.00,0.781540
