# Wavenumber	Transmittence
3918.00	0.884200
3913.00	0.884780
3888.00	0.887960
3858.00	0.892060
3893.00	0.887280
3938.00	0.874000
3883.00	0.888620
3933.00	0.879700
3873.00	0.889920
3928.00	0.881980
3908.00	0.885360
3953.00	0.857940
3868.00	0.890560
3863.00	0.891220
3903.00	0.885980
3923.00	0.883480
3963.00	0.854040
3948.00	0.861280
3958.00	0.855320
3853.00	0.892940
3943.00	0.867500
3898.00	0.886620
3878.00	0.889260
