# Wavenumber,Transmittence
1483.00,0.527500
1503.00,0.690140
1528.00,0.743420
1563.00,0.814220
1583.00,0.833940
1493.00,0.626360
1488.00,0.588360
1558.00,0.790680
1523.00,0.746160
1508.00,0.708780
1568.00,0.829900
1543.00,0.751360
1513.00,0.723260
1538.00,0.743080
1588.00,0.828740
1548.00,0.762360
1498.00,0.664140
1533.00,0.739980
1518.00,0.732660
1573.00,0.835000
1478.00,0.435360
1578.00,0.835840
1553.00,0.772280
