# Wavenumber,Transmittence
1993.00,0.909320
1968.00,0.860600
1928.00,0.931500
1953.00,0.919660
1918.00,0.925340
1933.00,0.936200
1983.00,0.875900
1963.00,0.878940
1923.00,0.927740
1958.00,0.901060
2003.00,0.918560
1913.00,0.924740
1988.00,0.891940
1998.00,0.915720
1978.00,0.866360
1908.00,0.925380
1973.00,0.857800
1943.00,0.933580
1938.00,0.935920
1948.00,0.928500
