# Wavenumber Transmittence
1993.00 0.909320
1978.00 0.866360
1968.00 0.860600
1983.00 0.875900
1913.00 0.924740
1903.00 0.923560
2013.00 0.914840
1888.00 0.905620
2003.00 0.918560
2008.00 0.917460
1953.00 0.919660
1893.00 0.909760
1998.00 0.915720
1918.00 0.925340
1908.00 0.925380
1898.00 0.916580
1988.00 0.891940
1943.00 0.933580
1948.00 0.928500
1928.00 0.931500
1963.00 0.878940
1933.00 0.936200
1923.00 0.927740
1973.00 0.857800
1958.00 0.901060
1938.00 0.935920
