# Wavenumber	Transmittence
1333.00	0.488520
1428.00	0.047040
1398.00	0.439500
1353.00	0.469620
1348.00	0.451640
1358.00	0.439920
1388.00	0.508960
1328.00	0.562720
1368.00	0.236680
1423.00	0.112960
1338.00	0.440960
1408.00	0.165780
1373.00	0.080600
1378.00	0.265000
1363.00	0.366740
1383.00	0.464820
1413.00	0.200640
1418.00	0.199220
1343.00	0.440060
1393.00	0.505780
1403.00	0.295640
