# Wavenumber Transmittence
2718.00 0.579500
2648.00 0.656940
2633.00 0.710800
2658.00 0.640700
2688.00 0.694340
2703.00 0.659740
2628.00 0.723780
2708.00 0.643700
2618.00 0.734860
2623.00 0.728180
2678.00 0.681720
2683.00 0.692060
2693.00 0.690180
2598.00 0.764120
2643.00 0.674800
2663.00 0.641640
2613.00 0.741900
2638.00 0.692800
2653.00 0.643880
2698.00 0.674740
2673.00 0.660540
2603.00 0.756500
2713.00 0.598800
2608.00 0.749120
2668.00 0.644860
