# Wavenumber,Transmittence
843.00,0.665360
848.00,0.647340
798.00,0.795320
728.00,0.314140
768.00,0.742980
833.00,0.757620
773.00,0.789160
783.00,0.774300
748.00,0.661460
793.00,0.785800
838.00,0.702940
723.00,0.167980
803.00,0.781540
718.00,0.282020
818.00,0.735980
828.00,0.769880
758.00,0.619080
823.00,0.764060
813.00,0.723640
753.00,0.607920
763.00,0.679900
733.00,0.492340
788.00,0.766380
738.00,0.642620
778.00,0.796080
808.00,0.737280
743.00,0.669540
