# Wavenumber,Transmittence
798.00,0.795320
853.00,0.638460
878.00,0.233460
873.00,0.375400
803.00,0.781540
823.00,0.764060
848.00,0.647340
833.00,0.757620
813.00,0.723640
793.00,0.785800
828.00,0.769880
893.00,0.028740
838.00,0.702940
863.00,0.605760
843.00,0.665360
888.00,0.096820
868.00,0.530020
883.00,0.189000
898.00,0.006620
858.00,0.629780
808.00,0.737280
818.00,0.735980
