# Wavenumber,Transmittence
2248.00,0.903160
2178.00,0.909900
2138.00,0.921660
2183.00,0.909940
2128.00,0.925460
2133.00,0.923900
2198.00,0.912300
2153.00,0.915100
2238.00,0.909660
2228.00,0.913360
2163.00,0.912500
2143.00,0.919200
2158.00,0.913580
2233.00,0.912420
2188.00,0.911020
2148.00,0.916820
2173.00,0.910520
2193.00,0.911920
2218.00,0.912360
2243.00,0.906420
2223.00,0.913020
2208.00,0.911700
2168.00,0.911500
2213.00,0.911820
2203.00,0.911800
