# Wavenumber,Transmittence
823.00,0.764060
883.00,0.189000
878.00,0.233460
803.00,0.781540
833.00,0.757620
873.00,0.375400
818.00,0.735980
853.00,0.638460
843.00,0.665360
848.00,0.647340
898.00,0.006620
858.00,0.629780
838.00,0.702940
888.00,0.096820
893.00,0.028740
798.00,0.795320
828.00,0.769880
868.00,0.530020
808.00,0.737280
813.00,0.723640
863.00,0.605760
