# Wavenumber,Transmittence
1218.00,0.708200
1203.00,0.731200
1223.00,0.729260
1193.00,0.729540
1163.00,0.782640
1123.00,0.705980
1173.00,0.793660
1183.00,0.748240
1213.00,0.736500
1198.00,0.737460
1143.00,0.690740
1108.00,0.561260
1103.00,0.594500
1168.00,0.795920
1148.00,0.728900
1153.00,0.750840
1178.00,0.773920
1208.00,0.733820
1128.00,0.698740
1158.00,0.764820
1138.00,0.672820
1133.00,0.672480
1113.00,0.605700
1098.00,0.662220
1118.00,0.662200
1188.00,0.729740
