# Wavenumber,Transmittence
813.00,0.723640
868.00,0.530020
873.00,0.375400
893.00,0.028740
878.00,0.233460
838.00,0.702940
848.00,0.647340
833.00,0.757620
828.00,0.769880
823.00,0.764060
853.00,0.638460
803.00,0.781540
903.00,0.000000
883.00,0.189000
843.00,0.665360
888.00,0.096820
818.00,0.735980
898.00,0.006620
863.00,0.605760
808.00,0.737280
858.00,0.629780
