# Wavenumber Transmittence
883.44 0.777200
906.88 0.846960
836.56 0.981400
869.38 0.796200
925.63 0.976000
930.31 0.983400
860.00 0.862200
813.13 0.985000
897.50 0.777400
892.81 0.761400
845.94 0.969200
855.31 0.912600
916.25 0.938800
822.50 0.986000
864.69 0.821200
841.25 0.978400
888.13 0.772040
850.63 0.945800
827.19 0.985800
920.94 0.963400
911.56 0.903400
902.19 0.798200
817.81 0.985400
874.06 0.803000
878.75 0.773480
831.88 0.984400
