# Wavenumber,Transmittence
780.31,0.993800
672.50,1.002000
728.75,1.012800
667.81,1.011400
733.44,1.009000
681.88,1.007200
705.31,1.013000
686.56,1.008000
747.50,1.007400
710.00,1.013200
695.94,1.009600
738.13,1.007400
770.94,1.000800
714.69,1.013400
785.00,0.991400
663.13,1.007800
677.19,0.999400
691.25,1.008000
719.38,1.015000
752.19,1.006200
742.81,1.007000
775.63,0.998000
700.63,1.012200
724.06,1.020200
761.56,1.005000
756.88,1.006200
766.25,1.004000
