# Wavenumber,Transmittence
949.06,0.994000
944.38,0.992800
953.75,0.992200
963.13,0.986800
935.00,0.986200
906.88,0.846960
925.63,0.976000
972.50,0.972000
892.81,0.761400
888.13,0.772040
902.19,0.798200
958.44,0.989600
883.44,0.777200
930.31,0.983400
939.69,0.990000
916.25,0.938800
874.06,0.803000
967.81,0.980800
878.75,0.773480
911.56,0.903400
920.94,0.963400
897.50,0.777400
