# Wavenumber,Transmittence
663.13,1.007800
635.00,1.004200
653.75,1.007400
738.13,1.007400
719.38,1.015000
742.81,1.007000
639.69,1.005000
686.56,1.008000
649.06,1.007800
700.63,1.012200
644.38,1.007000
691.25,1.008000
710.00,1.013200
705.31,1.013000
672.50,1.002000
733.44,1.009000
667.81,1.011400
724.06,1.020200
714.69,1.013400
695.94,1.009600
728.75,1.012800
677.19,0.999400
658.44,1.006600
681.88,1.007200
