# Wavenumber,Transmittence
724.06,1.020200
761.56,1.005000
808.44,0.984800
827.19,0.985800
822.50,0.986000
780.31,0.993800
733.44,1.009000
803.75,0.984000
775.63,0.998000
719.38,1.015000
766.25,1.004000
789.69,0.988600
770.94,1.000800
794.38,0.986800
742.81,1.007000
728.75,1.012800
738.13,1.007400
756.88,1.006200
752.19,1.006200
813.13,0.985000
817.81,0.985400
785.00,0.991400
831.88,0.984400
747.50,1.007400
799.06,0.985000
