# Wavenumber,Transmittence
972.50,0.972000
1028.75,0.398780
1014.69,0.555600
1024.06,0.448440
1019.38,0.527000
1052.19,0.179400
1038.13,0.258000
981.88,0.941400
1047.50,0.188600
1010.00,0.633680
991.25,0.883600
995.94,0.841800
967.81,0.980800
1033.44,0.325820
963.13,0.986800
1042.81,0.209600
1005.31,0.705800
977.19,0.960000
986.56,0.917200
1000.63,0.772680
