# Wavenumber,Transmittence
794.38,0.986800
789.69,0.988600
813.13,0.985000
752.19,1.006200
766.25,1.004000
770.94,1.000800
724.06,1.020200
799.06,0.985000
747.50,1.007400
780.31,0.993800
822.50,0.986000
728.75,1.012800
733.44,1.009000
738.13,1.007400
719.38,1.015000
785.00,0.991400
808.44,0.984800
742.81,1.007000
775.63,0.998000
761.56,1.005000
803.75,0.984000
756.88,1.006200
817.81,0.985400
