# Wavenumber	Transmittence
1305.31	0.899000
1403.75	0.515400
1314.69	0.897200
1347.50	0.844600
1328.75	0.890200
1375.63	0.506220
1399.06	0.564800
1333.44	0.883800
1385.00	0.496000
1310.00	0.899000
1413.13	0.585120
1408.44	0.518000
1366.25	0.638260
1300.63	0.899000
1389.69	0.514420
1324.06	0.893200
1394.38	0.406700
1342.81	0.861000
1361.56	0.701200
1338.13	0.874800
1319.38	0.895600
1370.94	0.554400
1380.31	0.479600
1356.88	0.758040
1352.19	0.808600
