# Wavenumber	Transmittence
831.88	0.984400
789.69	0.988600
813.13	0.985000
850.63	0.945800
883.44	0.777200
827.19	0.985800
841.25	0.978400
803.75	0.984000
794.38	0.986800
902.19	0.798200
878.75	0.773480
869.38	0.796200
808.44	0.984800
780.31	0.993800
845.94	0.969200
836.56	0.981400
906.88	0.846960
897.50	0.777400
785.00	0.991400
855.31	0.912600
822.50	0.986000
860.00	0.862200
892.81	0.761400
874.06	0.803000
864.69	0.821200
888.13	0.772040
817.81	0.985400
799.06	0.985000
