# Wavenumber,Transmittence
653.75,1.007400
695.94,1.009600
724.06,1.020200
747.50,1.007400
639.69,1.005000
681.88,1.007200
752.19,1.006200
700.63,1.012200
635.00,1.004200
667.81,1.011400
761.56,1.005000
756.88,1.006200
672.50,1.002000
705.31,1.013000
644.38,1.007000
710.00,1.013200
719.38,1.015000
649.06,1.007800
728.75,1.012800
658.44,1.006600
677.19,0.999400
733.44,1.009000
663.13,1.007800
738.13,1.007400
742.81,1.007000
686.56,1.008000
691.25,1.008000
714.69,1.013400
