# Wavenumber,Transmittence
710.00,1.013200
799.06,0.985000
756.88,1.006200
761.56,1.005000
733.44,1.009000
785.00,0.991400
705.31,1.013000
794.38,0.986800
766.25,1.004000
789.69,0.988600
813.13,0.985000
738.13,1.007400
752.19,1.006200
770.94,1.000800
808.44,0.984800
719.38,1.015000
742.81,1.007000
780.31,0.993800
724.06,1.020200
747.50,1.007400
817.81,0.985400
714.69,1.013400
775.63,0.998000
728.75,1.012800
803.75,0.984000
