# Wavenumber,Transmittence
1380.31,0.479600
1333.44,0.883800
1370.94,0.554400
1399.06,0.564800
1361.56,0.701200
1328.75,0.890200
1342.81,0.861000
1417.81,0.667580
1403.75,0.515400
1356.88,0.758040
1352.19,0.808600
1408.44,0.518000
1427.19,0.792000
1413.13,0.585120
1385.00,0.496000
1375.63,0.506220
1445.94,0.816800
1422.50,0.752380
1338.13,0.874800
1366.25,0.638260
1347.50,0.844600
1394.38,0.406700
1431.88,0.807800
1436.56,0.813600
1441.25,0.818000
1389.69,0.514420
