# Wavenumber,Transmittence
611.56,0.997200
592.81,0.992400
531.88,0.969000
527.19,0.969000
536.56,0.970000
560.00,0.978000
508.44,0.970000
630.31,1.002400
550.63,0.972000
569.38,0.983200
602.19,0.994800
555.31,0.974400
635.00,1.004200
578.75,0.988200
541.25,0.970000
597.50,0.994000
574.06,0.985600
564.69,0.981200
522.50,0.969000
606.88,0.995400
513.13,0.969400
620.94,1.000400
588.13,0.991400
625.63,1.001200
545.94,0.970000
503.75,0.970000
616.25,0.998800
583.44,0.988800
517.81,0.969000
