# Wavenumber,Transmittence
1427.19,0.792000
1445.94,0.816800
1408.44,0.518000
1375.63,0.506220
1356.88,0.758040
1436.56,0.813600
1380.31,0.479600
1385.00,0.496000
1455.31,0.813000
1450.63,0.784220
1361.56,0.701200
1413.13,0.585120
1366.25,0.638260
1399.06,0.564800
1460.00,0.858400
1417.81,0.667580
1389.69,0.514420
1441.25,0.818000
1422.50,0.752380
1431.88,0.807800
1370.94,0.554400
1403.75,0.515400
1394.38,0.406700
