# Wavenumber Transmittence
874.06 0.803000
864.69 0.821200
780.31 0.993800
803.75 0.984000
855.31 0.912600
883.44 0.777200
794.38 0.986800
831.88 0.984400
892.81 0.761400
878.75 0.773480
888.13 0.772040
813.13 0.985000
785.00 0.991400
822.50 0.986000
841.25 0.978400
808.44 0.984800
845.94 0.969200
860.00 0.862200
850.63 0.945800
817.81 0.985400
789.69 0.988600
827.19 0.985800
869.38 0.796200
799.06 0.985000
836.56 0.981400
