# Wavenumber	Transmittence
869.38	0.796200
850.63	0.945800
770.94	1.000800
775.63	0.998000
878.75	0.773480
785.00	0.991400
827.19	0.985800
855.31	0.912600
813.13	0.985000
808.44	0.984800
817.81	0.985400
794.38	0.986800
831.88	0.984400
841.25	0.978400
888.13	0.772040
780.31	0.993800
860.00	0.862200
803.75	0.984000
892.81	0.761400
799.06	0.985000
836.56	0.981400
822.50	0.986000
883.44	0.777200
864.69	0.821200
874.06	0.803000
897.50	0.777400
845.94	0.969200
789.69	0.988600
