# Wavenumber,Transmittence
672.50,1.002000
681.88,1.007200
658.44,1.006600
705.31,1.013000
686.56,1.008000
649.06,1.007800
639.69,1.005000
644.38,1.007000
724.06,1.020200
700.63,1.012200
719.38,1.015000
653.75,1.007400
695.94,1.009600
677.19,0.999400
663.13,1.007800
728.75,1.012800
691.25,1.008000
667.81,1.011400
710.00,1.013200
733.44,1.009000
714.69,1.013400
