# Wavenumber,Transmittence
719.38,1.015000
630.31,1.002400
691.25,1.008000
710.00,1.013200
681.88,1.007200
616.25,0.998800
695.94,1.009600
639.69,1.005000
705.31,1.013000
667.81,1.011400
672.50,1.002000
611.56,0.997200
663.13,1.007800
700.63,1.012200
606.88,0.995400
620.94,1.000400
644.38,1.007000
686.56,1.008000
653.75,1.007400
649.06,1.007800
625.63,1.001200
677.19,0.999400
714.69,1.013400
658.44,1.006600
635.00,1.004200
