# Wavenumber,Transmittence
639.69,1.005000
667.81,1.011400
644.38,1.007000
606.88,0.995400
695.94,1.009600
672.50,1.002000
611.56,0.997200
588.13,0.991400
578.75,0.988200
677.19,0.999400
681.88,1.007200
663.13,1.007800
658.44,1.006600
620.94,1.000400
630.31,1.002400
686.56,1.008000
635.00,1.004200
592.81,0.992400
691.25,1.008000
597.50,0.994000
653.75,1.007400
649.06,1.007800
602.19,0.994800
616.25,0.998800
583.44,0.988800
625.63,1.001200
