# Wavenumber,Transmittence
1544.38,0.990400
1553.75,0.990400
1558.44,0.990200
1619.38,0.986200
1610.00,0.989400
1539.69,0.987800
1577.19,0.989600
1567.81,0.991400
1563.13,0.993200
1572.50,0.993200
1614.69,0.988000
1591.25,0.988800
1535.00,0.985200
1605.31,0.988800
1595.94,0.990600
1628.75,0.989400
1581.88,0.992600
1624.06,0.987600
1549.06,0.993200
1586.56,0.994800
1600.63,0.990200
