# Wavenumber,Transmittence
560.00,0.978000
606.88,0.995400
602.19,0.994800
620.94,1.000400
541.25,0.970000
569.38,0.983200
545.94,0.970000
536.56,0.970000
588.13,0.991400
625.63,1.001200
522.50,0.969000
574.06,0.985600
630.31,1.002400
592.81,0.992400
531.88,0.969000
550.63,0.972000
517.81,0.969000
597.50,0.994000
616.25,0.998800
513.13,0.969400
583.44,0.988800
527.19,0.969000
564.69,0.981200
578.75,0.988200
555.31,0.974400
611.56,0.997200
