# Wavenumber,Transmittence
1324.06,0.893200
1310.00,0.899000
1352.19,0.808600
1403.75,0.515400
1319.38,0.895600
1361.56,0.701200
1380.31,0.479600
1385.00,0.496000
1413.13,0.585120
1366.25,0.638260
1370.94,0.554400
1399.06,0.564800
1342.81,0.861000
1375.63,0.506220
1356.88,0.758040
1333.44,0.883800
1338.13,0.874800
1389.69,0.514420
1347.50,0.844600
1305.31,0.899000
1408.44,0.518000
1328.75,0.890200
1417.81,0.667580
1394.38,0.406700
1314.69,0.897200
