# Wavenumber,Transmittence
667.81,1.011400
625.63,1.001200
649.06,1.007800
630.31,1.002400
653.75,1.007400
592.81,0.992400
663.13,1.007800
606.88,0.995400
597.50,0.994000
611.56,0.997200
672.50,1.002000
635.00,1.004200
602.19,0.994800
658.44,1.006600
588.13,0.991400
616.25,0.998800
620.94,1.000400
644.38,1.007000
639.69,1.005000
583.44,0.988800
