# Wavenumber	Transmittence
963.13	0.986800
977.19	0.960000
925.63	0.976000
972.50	0.972000
991.25	0.883600
935.00	0.986200
939.69	0.990000
958.44	0.989600
897.50	0.777400
953.75	0.992200
892.81	0.761400
949.06	0.994000
981.88	0.941400
911.56	0.903400
944.38	0.992800
967.81	0.980800
920.94	0.963400
986.56	0.917200
906.88	0.846960
902.19	0.798200
930.31	0.983400
916.25	0.938800
