# Wavenumber Transmittence
813.13 0.985000
883.44 0.777200
874.06 0.803000
864.69 0.821200
920.94 0.963400
897.50 0.777400
916.25 0.938800
831.88 0.984400
930.31 0.983400
925.63 0.976000
850.63 0.945800
808.44 0.984800
888.13 0.772040
803.75 0.984000
799.06 0.985000
869.38 0.796200
902.19 0.798200
860.00 0.862200
878.75 0.773480
855.31 0.912600
822.50 0.986000
845.94 0.969200
836.56 0.981400
841.25 0.978400
892.81 0.761400
906.88 0.846960
827.19 0.985800
817.81 0.985400
911.56 0.903400
