# Wavenumber	Transmittence
869.38	0.796200
930.31	0.983400
916.25	0.938800
925.63	0.976000
841.25	0.978400
827.19	0.985800
817.81	0.985400
935.00	0.986200
836.56	0.981400
860.00	0.862200
888.13	0.772040
831.88	0.984400
883.44	0.777200
911.56	0.903400
902.19	0.798200
874.06	0.803000
897.50	0.777400
944.38	0.992800
822.50	0.986000
864.69	0.821200
906.88	0.846960
845.94	0.969200
855.31	0.912600
920.94	0.963400
878.75	0.773480
850.63	0.945800
939.69	0.990000
892.81	0.761400
