# Wavenumber,Transmittence
1141.25,0.935800
1122.50,0.856800
1155.31,0.957800
1094.38,0.507800
1145.94,0.947000
1047.50,0.188600
1080.31,0.247600
1075.63,0.193800
1042.81,0.209600
1131.88,0.907800
1136.56,0.923000
1070.94,0.197000
1113.13,0.734100
1108.44,0.648400
1099.06,0.542800
1150.63,0.954200
1061.56,0.179820
1052.19,0.179400
1117.81,0.795200
1085.00,0.309360
1127.19,0.885400
1056.88,0.178140
1089.69,0.411380
1103.75,0.583980
1066.25,0.164540
