# Wavenumber	Transmittence
874.06	0.803000
939.69	0.990000
883.44	0.777200
888.13	0.772040
860.00	0.862200
836.56	0.981400
902.19	0.798200
864.69	0.821200
850.63	0.945800
897.50	0.777400
869.38	0.796200
944.38	0.992800
841.25	0.978400
930.31	0.983400
906.88	0.846960
925.63	0.976000
935.00	0.986200
920.94	0.963400
845.94	0.969200
855.31	0.912600
916.25	0.938800
878.75	0.773480
892.81	0.761400
911.56	0.903400
