# Wavenumber	Transmittence
803.75	0.984000
822.50	0.986000
864.69	0.821200
897.50	0.777400
930.31	0.983400
892.81	0.761400
808.44	0.984800
850.63	0.945800
902.19	0.798200
925.63	0.976000
860.00	0.862200
845.94	0.969200
883.44	0.777200
836.56	0.981400
855.31	0.912600
813.13	0.985000
920.94	0.963400
817.81	0.985400
916.25	0.938800
888.13	0.772040
874.06	0.803000
878.75	0.773480
869.38	0.796200
911.56	0.903400
827.19	0.985800
841.25	0.978400
831.88	0.984400
906.88	0.846960
