# Wavenumber,Transmittence
578.75,0.988200
536.56,0.970000
592.81,0.992400
588.13,0.991400
545.94,0.970000
531.88,0.969000
574.06,0.985600
583.44,0.988800
508.44,0.970000
606.88,0.995400
597.50,0.994000
564.69,0.981200
541.25,0.970000
569.38,0.983200
560.00,0.978000
513.13,0.969400
517.81,0.969000
503.75,0.970000
522.50,0.969000
527.19,0.969000
555.31,0.974400
602.19,0.994800
550.63,0.972000
