# Wavenumber	Transmittence
1300.63	0.899000
1295.94	0.896800
1352.19	0.808600
1272.50	0.814200
1291.25	0.892200
1277.19	0.846200
1319.38	0.895600
1375.63	0.506220
1361.56	0.701200
1310.00	0.899000
1286.56	0.880600
1305.31	0.899000
1281.88	0.869800
1328.75	0.890200
1356.88	0.758040
1324.06	0.893200
1366.25	0.638260
1347.50	0.844600
1333.44	0.883800
1370.94	0.554400
1314.69	0.897200
1342.81	0.861000
1338.13	0.874800
