# Wavenumber,Transmittence
855.31,0.912600
845.94,0.969200
878.75,0.773480
794.38,0.986800
822.50,0.986000
869.38,0.796200
789.69,0.988600
827.19,0.985800
808.44,0.984800
860.00,0.862200
874.06,0.803000
785.00,0.991400
817.81,0.985400
864.69,0.821200
841.25,0.978400
831.88,0.984400
803.75,0.984000
850.63,0.945800
836.56,0.981400
813.13,0.985000
799.06,0.985000
