# Wavenumber,Transmittence
1783.44,0.988000
1900.63,0.982200
1797.50,0.991400
1806.88,0.994000
1830.31,0.995000
1886.56,0.988400
1867.81,0.992800
1835.00,0.995000
1863.13,0.994200
1877.19,0.991200
1849.06,0.997000
1820.94,0.995800
1816.25,0.994800
1905.31,0.979600
1839.69,0.995000
1895.94,0.984600
1811.56,0.994000
1788.13,0.988000
1853.75,0.997200
1858.44,0.996600
1802.19,0.994000
1825.63,0.996600
1872.50,0.992000
1792.81,0.988400
1844.38,0.995000
1891.25,0.986400
1881.88,0.989400
