# Wavenumber Transmittence
803.75 0.984000
827.19 0.985800
813.13 0.985000
878.75 0.773480
808.44 0.984800
841.25 0.978400
756.88 1.006200
836.56 0.981400
817.81 0.985400
855.31 0.912600
822.50 0.986000
874.06 0.803000
869.38 0.796200
789.69 0.988600
850.63 0.945800
761.56 1.005000
864.69 0.821200
794.38 0.986800
799.06 0.985000
770.94 1.000800
780.31 0.993800
860.00 0.862200
766.25 1.004000
752.19 1.006200
775.63 0.998000
785.00 0.991400
831.88 0.984400
845.94 0.969200
