# Wavenumber,Transmittence
1511.56,0.957600
1464.69,0.867600
1478.75,0.877800
1549.06,0.993200
1506.88,0.946000
1530.31,0.982800
1474.06,0.872400
1497.50,0.930400
1539.69,0.987800
1520.94,0.970800
1469.38,0.871200
1525.63,0.977800
1455.31,0.813000
1544.38,0.990400
1460.00,0.858400
1535.00,0.985200
1516.25,0.964800
1445.94,0.816800
1488.13,0.905200
1450.63,0.784220
1502.19,0.938200
1492.81,0.915400
1483.44,0.894200
