# Wavenumber,Transmittence
522.50,0.969000
480.31,0.970000
555.31,0.974400
527.19,0.969000
517.81,0.969000
475.63,0.969400
466.25,0.968000
536.56,0.970000
508.44,0.970000
541.25,0.970000
545.94,0.970000
485.00,0.972000
499.06,0.970400
513.13,0.969400
489.69,0.972000
461.56,0.966000
531.88,0.969000
494.38,0.972000
550.63,0.972000
470.94,0.968800
503.75,0.970000
