# Wavenumber,Transmittence
461.56,0.966000
503.75,0.970000
508.44,0.970000
466.25,0.968000
480.31,0.970000
578.75,0.988200
541.25,0.970000
550.63,0.972000
545.94,0.970000
574.06,0.985600
564.69,0.981200
555.31,0.974400
522.50,0.969000
475.63,0.969400
489.69,0.972000
494.38,0.972000
531.88,0.969000
470.94,0.968800
536.56,0.970000
485.00,0.972000
560.00,0.978000
517.81,0.969000
499.06,0.970400
527.19,0.969000
513.13,0.969400
569.38,0.983200
