# Wavenumber	Transmittence
1421.00	0.800380
1416.00	0.803920
1496.00	0.637780
1436.00	0.793200
1501.00	0.601200
1411.00	0.806640
1511.00	0.652920
1531.00	0.780360
1481.00	0.758640
1526.00	0.779060
1506.00	0.643480
1466.00	0.751320
1441.00	0.781460
1521.00	0.768740
1486.00	0.743900
1476.00	0.752060
1461.00	0.746500
1456.00	0.750020
1446.00	0.768760
1431.00	0.801500
1471.00	0.751780
1491.00	0.677860
1451.00	0.755840
1516.00	0.720400
1426.00	0.803460
