# Wavenumber,Transmittence
1371.00,0.807380
1396.00,0.791060
1341.00,0.828900
1331.00,0.830300
1381.00,0.780600
1351.00,0.831080
1421.00,0.800380
1391.00,0.779980
1306.00,0.833740
1376.00,0.792380
1356.00,0.832000
1361.00,0.829300
1401.00,0.801980
1336.00,0.829600
1316.00,0.831900
1386.00,0.776800
1406.00,0.807340
1311.00,0.832580
1411.00,0.806640
1326.00,0.830860
1366.00,0.820360
1321.00,0.831400
1346.00,0.829080
1416.00,0.803920
