# Wavenumber	Transmittence
1491.00	0.677860
1421.00	0.800380
1446.00	0.768760
1416.00	0.803920
1436.00	0.793200
1376.00	0.792380
1406.00	0.807340
1391.00	0.779980
1411.00	0.806640
1471.00	0.751780
1496.00	0.637780
1441.00	0.781460
1451.00	0.755840
1426.00	0.803460
1466.00	0.751320
1401.00	0.801980
1386.00	0.776800
1461.00	0.746500
1396.00	0.791060
1456.00	0.750020
1381.00	0.780600
1476.00	0.752060
1481.00	0.758640
1431.00	0.801500
1486.00	0.743900
