# Wavenumber Transmittence
1421.00 0.800380
1446.00 0.768760
1456.00 0.750020
1416.00 0.803920
1471.00 0.751780
1476.00 0.752060
1396.00 0.791060
1411.00 0.806640
1496.00 0.637780
1451.00 0.755840
1486.00 0.743900
1461.00 0.746500
1481.00 0.758640
1406.00 0.807340
1431.00 0.801500
1441.00 0.781460
1391.00 0.779980
1466.00 0.751320
1491.00 0.677860
1436.00 0.793200
1401.00 0.801980
1426.00 0.803460
