# Wavenumber,Transmittence
1511.00,0.652920
1456.00,0.750020
1446.00,0.768760
1426.00,0.803460
1416.00,0.803920
1491.00,0.677860
1441.00,0.781460
1461.00,0.746500
1406.00,0.807340
1451.00,0.755840
1481.00,0.758640
1476.00,0.752060
1421.00,0.800380
1496.00,0.637780
1516.00,0.720400
1471.00,0.751780
1466.00,0.751320
1436.00,0.793200
1506.00,0.643480
1401.00,0.801980
1501.00,0.601200
1431.00,0.801500
1486.00,0.743900
1396.00,0.791060
1411.00,0.806640
