# Wavenumber,Transmittence
1411.00,0.806640
1386.00,0.776800
1436.00,0.793200
1466.00,0.751320
1456.00,0.750020
1396.00,0.791060
1446.00,0.768760
1401.00,0.801980
1391.00,0.779980
1441.00,0.781460
1406.00,0.807340
1471.00,0.751780
1451.00,0.755840
1416.00,0.803920
1366.00,0.820360
1421.00,0.800380
1431.00,0.801500
1371.00,0.807380
1376.00,0.792380
1461.00,0.746500
1426.00,0.803460
1381.00,0.780600
