# Wavenumber,Transmittence
861.00,0.844300
781.00,0.839680
801.00,0.839520
841.00,0.838840
741.00,0.525400
836.00,0.835140
761.00,0.831380
766.00,0.839160
771.00,0.840960
776.00,0.841260
791.00,0.841320
876.00,0.845640
816.00,0.836420
866.00,0.844980
826.00,0.835960
856.00,0.843380
806.00,0.841500
821.00,0.838200
811.00,0.841200
851.00,0.842460
751.00,0.720140
796.00,0.839020
831.00,0.832100
736.00,0.495900
746.00,0.616260
756.00,0.805600
846.00,0.841200
871.00,0.845080
786.00,0.844800
