# Wavenumber,Transmittence
1501.00,0.601200
1476.00,0.752060
1411.00,0.806640
1471.00,0.751780
1441.00,0.781460
1506.00,0.643480
1446.00,0.768760
1456.00,0.750020
1486.00,0.743900
1426.00,0.803460
1496.00,0.637780
1406.00,0.807340
1466.00,0.751320
1421.00,0.800380
1481.00,0.758640
1431.00,0.801500
1491.00,0.677860
1511.00,0.652920
1436.00,0.793200
1416.00,0.803920
1451.00,0.755840
1461.00,0.746500
