# Wavenumber,Transmittence
1341.00,0.828900
1361.00,0.829300
1446.00,0.768760
1406.00,0.807340
1401.00,0.801980
1451.00,0.755840
1461.00,0.746500
1421.00,0.800380
1351.00,0.831080
1416.00,0.803920
1411.00,0.806640
1456.00,0.750020
1396.00,0.791060
1381.00,0.780600
1436.00,0.793200
1471.00,0.751780
1386.00,0.776800
1441.00,0.781460
1366.00,0.820360
1466.00,0.751320
1376.00,0.792380
1426.00,0.803460
1391.00,0.779980
1346.00,0.829080
1371.00,0.807380
1431.00,0.801500
1356.00,0.832000
